Node Number	Directional Deformation (m)
1	0.
2	0.
3	0.
4	0.
5	-2.118e-002
6	-9.5282e-002
7	-0.20971
8	-0.35172
9	-0.5086
10	-0.66831
11	-0.81974
12	-0.95294
13	-1.0595
14	-1.1325
15	-1.167
16	-1.16
17	-1.1105
18	-1.0195
19	-0.88991
20	-0.72638
21	-0.53509
22	-0.32348
23	-9.9899e-002
24	0.12673
25	0.3473
26	0.55292
27	0.73525
28	0.8869
29	1.0017
30	1.075
31	1.1039
32	1.0872
33	1.0255
34	0.92157
35	0.7796
36	0.60548
37	0.40639
38	0.19055
39	-3.3149e-002
40	-0.2555
41	-0.46734
42	-0.65995
43	-0.82541
44	-0.9569
45	-1.049
46	-1.098
47	-1.1018
48	-1.0602
49	-0.97506
50	-0.8498
51	-0.68959
52	-0.50104
53	-0.2919
54	-7.0807e-002
55	0.15314
56	0.37071
57	0.57293
58	0.75146
59	0.89893
60	1.0093
61	1.0779
62	1.102
63	1.0806
64	1.0145
65	0.90648
66	0.76101
67	0.58409
68	0.38302
69	0.16613
70	-5.7596e-002
71	-0.27885
72	-0.48841
73	-0.67748
74	-0.83805
75	-0.96321
76	-1.0474
77	-1.0867
78	-1.0788
79	-1.0231
80	-0.9209
81	-0.77497
82	-0.58954
83	-0.37001
84	-0.12259
85	0.1461
86	0.4295
87	0.72157
88	1.0174
89	0.
90	1.3137
91	0.
92	0.
93	0.
94	0.
95	0.
96	0.
97	0.
98	-2.1181e-002
99	-9.5283e-002
100	-0.20971
101	-0.35172
102	-0.5086
103	-0.66832
104	-0.81974
105	-0.95294
106	-1.0595
107	-1.1325
108	-1.167
109	-1.16
110	-1.1105
111	-1.0195
112	-0.88991
113	-0.72638
114	-0.53509
115	-0.32348
116	-9.9898e-002
117	0.12673
118	0.3473
119	0.55292
120	0.73525
121	0.8869
122	1.0017
123	1.075
124	1.1039
125	1.0872
126	1.0255
127	0.92157
128	0.7796
129	0.60548
130	0.40639
131	0.19055
132	-3.3149e-002
133	-0.2555
134	-0.46734
135	-0.65995
136	-0.82541
137	-0.9569
138	-1.049
139	-1.098
140	-1.1018
141	-1.0602
142	-0.97506
143	-0.8498
144	-0.68959
145	-0.50104
146	-0.29191
147	-7.0806e-002
148	0.15314
149	0.37071
150	0.57292
151	0.75146
152	0.89893
153	1.0093
154	1.0779
155	1.102
156	1.0806
157	1.0145
158	0.90648
159	0.76101
160	0.58409
161	0.38302
162	0.16613
163	-5.7596e-002
164	-0.27885
165	-0.48841
166	-0.67748
167	-0.83805
168	-0.96321
169	-1.0474
170	-1.0867
171	-1.0788
172	-1.0231
173	-0.9209
174	-0.77497
175	-0.58954
176	-0.37001
177	-0.12259
178	0.14611
179	0.4295
180	0.72157
181	1.0174
182	1.3137
183	-2.7516e-002
184	-0.10177
185	-0.21304
186	-0.34969
187	-0.5001
188	-0.65294
189	-0.79769
190	-0.92489
191	-1.0264
192	-1.0958
193	-1.1282
194	-1.1208
195	-1.0726
196	-0.98449
197	-0.85936
198	-0.70165
199	-0.51731
200	-0.31347
201	-9.816e-002
202	0.12004
203	0.33238
204	0.5303
205	0.7058
206	0.85177
207	0.9623
208	1.0329
209	1.0607
210	1.0447
211	0.98551
212	0.88562
213	0.74918
214	0.58182
215	0.39046
216	0.18298
217	-3.2055e-002
218	-0.2458
219	-0.44945
220	-0.63461
221	-0.79367
222	-0.92007
223	-1.0086
224	-1.0556
225	-1.0592
226	-1.0192
227	-0.93719
228	-0.81666
229	-0.66252
230	-0.48113
231	-0.27997
232	-6.7326e-002
233	0.14804
234	0.35727
235	0.55172
236	0.7234
237	0.86524
238	0.9714
239	1.0375
240	1.0609
241	1.0405
242	0.97728
243	0.87382
244	0.73442
245	0.56485
246	0.37215
247	0.16432
248	-4.9965e-002
249	-0.26176
250	-0.46217
251	-0.64272
252	-0.79567
253	-0.91436
254	-0.99342
255	-1.029
256	-1.0188
257	-0.96242
258	-0.86084
259	-0.71673
260	-0.53412
261	-0.31811
262	-7.4585e-002
263	0.19019
264	0.46998
265	0.7591
266	1.0529
267	-2.8089e-002
268	-0.10231
269	-0.21186
270	-0.34523
271	-0.49138
272	-0.63954
273	-0.77963
274	-0.90258
275	-1.0006
276	-1.0674
277	-1.0983
278	-1.0907
279	-1.0435
280	-0.95773
281	-0.83607
282	-0.68287
283	-0.50387
284	-0.30601
285	-9.7071e-002
286	0.11465
287	0.32066
288	0.51267
289	0.68293
290	0.82455
291	0.93181
292	1.0003
293	1.0274
294	1.012
295	0.95469
296	0.85795
297	0.72577
298	0.56362
299	0.3782
300	0.17716
301	-3.122e-002
302	-0.23834
303	-0.43569
304	-0.61511
305	-0.76924
306	-0.89171
307	-0.97749
308	-1.023
309	-1.0265
310	-0.98763
311	-0.90815
312	-0.79128
313	-0.64185
314	-0.466
315	-0.27098
316	-6.4812e-002
317	0.14401
318	0.34688
319	0.53546
320	0.70199
321	0.83961
322	0.94268
323	1.007
324	1.0298
325	1.0104
326	0.9494
327	0.84948
328	0.71479
329	0.55092
330	0.36471
331	0.16393
332	-4.3014e-002
333	-0.24742
334	-0.44066
335	-0.61449
336	-0.76141
337	-0.87491
338	-0.94977
339	-0.98222
340	-0.97007
341	-0.91274
342	-0.81126
343	-0.66814
344	-0.48724
345	-0.27345
346	-3.2413e-002
347	0.22984
348	0.50734
349	0.79459
350	1.0871
351	-2.7463e-002
352	-0.10081
353	-0.20881
354	-0.33988
355	-0.48314
356	-0.6281
357	-0.76497
358	-0.88495
359	-0.98049
360	-1.0455
361	-1.0755
362	-1.0677
363	-1.0214
364	-0.93746
365	-0.81848
366	-0.66872
367	-0.49381
368	-0.30051
369	-9.6406e-002
370	0.11038
371	0.31159
372	0.49911
373	0.6654
374	0.80372
375	0.90849
376	0.97548
377	1.002
378	0.98701
379	0.93117
380	0.83683
381	0.70791
382	0.54973
383	0.36884
384	0.1727
385	-3.0602e-002
386	-0.23268
387	-0.42522
388	-0.60028
389	-0.75065
390	-0.87013
391	-0.95379
392	-0.9982
393	-1.0015
394	-0.9636
395	-0.886
396	-0.77193
397	-0.62607
398	-0.45442
399	-0.26406
400	-6.2817e-002
401	0.14103
402	0.33909
403	0.52322
404	0.68585
405	0.82029
406	0.92104
407	0.98395
408	1.0065
409	0.98775
410	0.92856
411	0.8314
412	0.70035
413	0.54089
414	0.3597
415	0.16438
416	-3.6864e-002
417	-0.23553
418	-0.42317
419	-0.59174
420	-0.73388
421	-0.84324
422	-0.9147
423	-0.94455
424	-0.93061
425	-0.87231
426	-0.77061
427	-0.62795
428	-0.44803
429	-0.2356
430	3.857e-003
431	0.26449
432	0.54049
433	0.82652
434	1.1181
435	-2.6799e-002
436	-9.8952e-002
437	-0.20547
438	-0.33475
439	-0.47595
440	-0.61867
441	-0.75332
442	-0.87127
443	-0.96511
444	-1.0289
445	-1.0582
446	-1.0506
447	-1.005
448	-0.92237
449	-0.80541
450	-0.65824
451	-0.48639
452	-0.2965
453	-9.6021e-002
454	0.10709
455	0.3047
456	0.48888
457	0.6522
458	0.78806
459	0.89099
460	0.95683
461	0.98293
462	0.96828
463	0.91355
464	0.82101
465	0.69452
466	0.53932
467	0.36182
468	0.16935
469	-3.0152e-002
470	-0.22846
471	-0.4174
472	-0.58918
473	-0.73674
474	-0.85398
475	-0.93607
476	-0.97963
477	-0.98285
478	-0.94561
479	-0.86942
480	-0.75743
481	-0.61423
482	-0.44572
483	-0.25884
484	-6.1263e-002
485	0.13888
486	0.33335
487	0.51416
488	0.67389
489	0.80598
490	0.90501
491	0.96694
492	0.98926
493	0.9711
494	0.91326
495	0.81821
496	0.68993
497	0.53383
498	0.35645
499	0.16528
500	-3.1624e-002
501	-0.2259
502	-0.40926
503	-0.57378
504	-0.71223
505	-0.81836
506	-0.88711
507	-0.91484
508	-0.89939
509	-0.84017
510	-0.7381
511	-0.59555
512	-0.41614
513	-0.2045
514	3.3987e-002
515	0.29361
516	0.56866
517	0.85388
518	1.1449
519	-2.6276e-002
520	-9.7364e-002
521	-0.2026
522	-0.33047
523	-0.47015
524	-0.61133
525	-0.74447
526	-0.86104
527	-0.95375
528	-1.0167
529	-1.0457
530	-1.0381
531	-0.99304
532	-0.91148
533	-0.79601
534	-0.65073
535	-0.4811
536	-0.29368
537	-9.5815e-002
538	0.10463
539	0.29965
540	0.48142
541	0.6426
542	0.77669
543	0.87829
544	0.9433
545	0.96911
546	0.95472
547	0.90078
548	0.80955
549	0.68483
550	0.53178
551	0.35673
552	0.16692
553	-2.9833e-002
554	-0.22541
555	-0.41175
556	-0.58117
557	-0.72668
558	-0.8423
559	-0.92324
560	-0.96618
561	-0.96934
562	-0.93258
563	-0.85741
564	-0.74692
565	-0.60565
566	-0.43941
567	-0.25503
568	-6.0099e-002
569	0.13737
570	0.32926
571	0.50769
572	0.66534
573	0.79573
574	0.89354
575	0.95477
576	0.97695
577	0.95923
578	0.90241
579	0.8089
580	0.68266
581	0.52901
582	0.35444
583	0.16631
584	-2.7406e-002
585	-0.21846
586	-0.39866
587	-0.56017
588	-0.69587
589	-0.79957
590	-0.86627
591	-0.89235
592	-0.87569
593	-0.81567
594	-0.7132
595	-0.57059
596	-0.3914
597	-0.1802
598	5.7733e-002
599	0.31674
600	0.59121
601	0.87593
602	1.1666
603	-2.5918e-002
604	-9.6214e-002
605	-0.20048
606	-0.32732
607	-0.46596
608	-0.60609
609	-0.73824
610	-0.85394
611	-0.94594
612	-1.0084
613	-1.0372
614	-1.0296
615	-0.98498
616	-0.90414
617	-0.78967
618	-0.64568
619	-0.47756
620	-0.2918
621	-9.5714e-002
622	0.10294
623	0.29621
624	0.47634
625	0.63608
626	0.76898
627	0.86969
628	0.93413
629	0.95975
630	0.94554
631	0.89214
632	0.8018
633	0.67827
634	0.52668
635	0.3533
636	0.16528
637	-2.9619e-002
638	-0.22335
639	-0.40793
640	-0.57575
641	-0.71988
642	-0.8344
643	-0.91457
644	-0.95709
645	-0.96021
646	-0.92377
647	-0.84929
648	-0.73981
649	-0.59983
650	-0.43512
651	-0.25243
652	-5.929e-002
653	0.13638
654	0.32653
655	0.50336
656	0.6596
657	0.78887
658	0.88586
659	0.94663
660	0.96873
661	0.95132
662	0.89519
663	0.80274
664	0.6779
665	0.52593
666	0.35327
667	0.16722
668	-2.4312e-002
669	-0.21315
670	-0.39118
671	-0.55062
672	-0.68442
673	-0.78642
674	-0.85167
675	-0.87659
676	-0.85904
677	-0.79841
678	-0.69559
679	-0.55286
680	-0.37374
681	-0.16275
682	7.4873e-002
683	0.33354
684	0.60766
685	0.8921
686	1.1826
687	-2.571e-002
688	-9.5531e-002
689	-0.1992
690	-0.32541
691	-0.46343
692	-0.60296
693	-0.73455
694	-0.84975
695	-0.94136
696	-1.0036
697	-1.0322
698	-1.0247
699	-0.98031
700	-0.89989
701	-0.78602
702	-0.64277
703	-0.47552
704	-0.29074
705	-9.5671e-002
706	0.10194
707	0.2942
708	0.47339
709	0.6323
710	0.76451
711	0.8647
712	0.92883
713	0.95433
714	0.94023
715	0.88714
716	0.79732
717	0.67448
718	0.52373
719	0.35131
720	0.16433
721	-2.9492e-002
722	-0.22216
723	-0.40572
724	-0.57261
725	-0.71595
726	-0.82983
727	-0.90955
728	-0.95183
729	-0.95492
730	-0.91867
731	-0.84458
732	-0.73569
733	-0.59647
734	-0.43264
735	-0.25093
736	-5.8817e-002
737	0.13581
738	0.32496
739	0.50087
740	0.65631
741	0.78493
742	0.88145
743	0.94196
744	0.96403
745	0.9468
746	0.89107
747	0.79924
748	0.67521
749	0.52422
750	0.35268
751	0.16784
752	-2.2423e-002
753	-0.20997
754	-0.38673
755	-0.54496
756	-0.67763
757	-0.77863
758	-0.84303
759	-0.86724
760	-0.84915
761	-0.78814
762	-0.68508
763	-0.54225
764	-0.36314
765	-0.15225
766	8.5235e-002
767	0.34373
768	0.61769
769	0.90197
770	1.1923
771	-2.5642e-002
772	-9.5304e-002
773	-0.19877
774	-0.32478
775	-0.46258
776	-0.60192
777	-0.73332
778	-0.84837
779	-0.93985
780	-1.002
781	-1.0306
782	-1.0231
783	-0.97878
784	-0.8985
785	-0.78482
786	-0.64182
787	-0.47486
788	-0.29039
789	-9.5658e-002
790	0.10161
791	0.29354
792	0.47242
793	0.63105
794	0.76304
795	0.86307
796	0.92709
797	0.95256
798	0.93849
799	0.88551
800	0.79585
801	0.67325
802	0.52278
803	0.35067
804	0.16403
805	-2.9443e-002
806	-0.22176
807	-0.40499
808	-0.57158
809	-0.71466
810	-0.82833
811	-0.9079
812	-0.9501
813	-0.95318
814	-0.917
815	-0.84304
816	-0.73434
817	-0.59537
818	-0.43183
819	-0.25045
820	-5.8667e-002
821	0.13562
822	0.32445
823	0.50006
824	0.65524
825	0.78365
826	0.88003
827	0.94046
828	0.96251
829	0.94534
830	0.88975
831	0.79812
832	0.67435
833	0.52368
834	0.3525
835	0.16806
836	-2.1787e-002
837	-0.20892
838	-0.38525
839	-0.54309
840	-0.67539
841	-0.77606
842	-0.84017
843	-0.86415
844	-0.84588
845	-0.78474
846	-0.6816
847	-0.53873
848	-0.35962
849	-0.14874
850	8.8706e-002
851	0.34716
852	0.62107
853	0.90531
854	1.1956
855	-2.571e-002
856	-9.5531e-002
857	-0.1992
858	-0.32541
859	-0.46342
860	-0.60296
861	-0.73455
862	-0.84975
863	-0.94135
864	-1.0036
865	-1.0322
866	-1.0247
867	-0.9803
868	-0.89988
869	-0.78601
870	-0.64276
871	-0.47552
872	-0.29074
873	-9.567e-002
874	0.10194
875	0.29419
876	0.47338
877	0.63229
878	0.7645
879	0.86469
880	0.92883
881	0.95434
882	0.94023
883	0.88715
884	0.79733
885	0.6745
886	0.52375
887	0.35133
888	0.16435
889	-2.9471e-002
890	-0.22214
891	-0.4057
892	-0.57259
893	-0.71593
894	-0.82981
895	-0.90953
896	-0.95181
897	-0.9549
898	-0.91866
899	-0.84458
900	-0.73569
901	-0.59648
902	-0.43266
903	-0.25095
904	-5.884e-002
905	0.13579
906	0.32495
907	0.50086
908	0.65632
909	0.78495
910	0.88149
911	0.94201
912	0.96407
913	0.94684
914	0.89111
915	0.79928
916	0.67524
917	0.52425
918	0.35269
919	0.16785
920	-2.2422e-002
921	-0.20998
922	-0.38673
923	-0.54497
924	-0.67765
925	-0.77865
926	-0.84305
927	-0.86727
928	-0.84918
929	-0.78817
930	-0.68512
931	-0.54228
932	-0.36316
933	-0.15225
934	8.5245e-002
935	0.34376
936	0.61774
937	0.90204
938	1.1924
939	-2.5918e-002
940	-9.6215e-002
941	-0.20048
942	-0.32732
943	-0.46595
944	-0.60609
945	-0.73823
946	-0.85392
947	-0.94592
948	-1.0084
949	-1.0372
950	-1.0296
951	-0.98495
952	-0.90412
953	-0.78966
954	-0.64567
955	-0.47755
956	-0.2918
957	-9.5716e-002
958	0.10293
959	0.29619
960	0.47632
961	0.63606
962	0.76896
963	0.86967
964	0.93413
965	0.95975
966	0.94555
967	0.89216
968	0.80183
969	0.67831
970	0.52672
971	0.35334
972	0.16532
973	-2.9579e-002
974	-0.22331
975	-0.40789
976	-0.5757
977	-0.71984
978	-0.83435
979	-0.91452
980	-0.95705
981	-0.96017
982	-0.92375
983	-0.84928
984	-0.73981
985	-0.59986
986	-0.43516
987	-0.25248
988	-5.9341e-002
989	0.13633
990	0.3265
991	0.50334
992	0.65962
993	0.7889
994	0.88592
995	0.94671
996	0.96882
997	0.95141
998	0.89527
999	0.80281
1000	0.67796
1001	0.52598
1002	0.3533
1003	0.16724
1004	-2.431e-002
1005	-0.21316
1006	-0.39119
1007	-0.55065
1008	-0.68445
1009	-0.78645
1010	-0.85172
1011	-0.87664
1012	-0.8591
1013	-0.79847
1014	-0.69565
1015	-0.55291
1016	-0.37378
1017	-0.16277
1018	7.4889e-002
1019	0.33359
1020	0.60776
1021	0.89223
1022	1.1827
1023	-2.6277e-002
1024	-9.7366e-002
1025	-0.2026
1026	-0.33047
1027	-0.47015
1028	-0.61132
1029	-0.74445
1030	-0.86102
1031	-0.95373
1032	-1.0167
1033	-1.0457
1034	-1.038
1035	-0.993
1036	-0.91145
1037	-0.79598
1038	-0.65071
1039	-0.48109
1040	-0.29367
1041	-9.582e-002
1042	0.10462
1043	0.29963
1044	0.48138
1045	0.64256
1046	0.77666
1047	0.87827
1048	0.94328
1049	0.96911
1050	0.95473
1051	0.9008
1052	0.80959
1053	0.68487
1054	0.53183
1055	0.35679
1056	0.16697
1057	-2.9779e-002
1058	-0.22536
1059	-0.41169
1060	-0.58111
1061	-0.72662
1062	-0.84223
1063	-0.92318
1064	-0.96612
1065	-0.9693
1066	-0.93255
1067	-0.85741
1068	-0.74694
1069	-0.60569
1070	-0.43947
1071	-0.25511
1072	-6.0181e-002
1073	0.1373
1074	0.32921
1075	0.50767
1076	0.66535
1077	0.79578
1078	0.89362
1079	0.95488
1080	0.97708
1081	0.95936
1082	0.90253
1083	0.80901
1084	0.68275
1085	0.52909
1086	0.35449
1087	0.16633
1088	-2.7401e-002
1089	-0.21847
1090	-0.39868
1091	-0.56021
1092	-0.69592
1093	-0.79962
1094	-0.86634
1095	-0.89244
1096	-0.87579
1097	-0.81577
1098	-0.7133
1099	-0.57068
1100	-0.39146
1101	-0.18023
1102	5.7745e-002
1103	0.31681
1104	0.59133
1105	0.87612
1106	1.1669
1107	-2.6801e-002
1108	-9.8955e-002
1109	-0.20547
1110	-0.33475
1111	-0.47594
1112	-0.61866
1113	-0.75331
1114	-0.87125
1115	-0.96508
1116	-1.0289
1117	-1.0582
1118	-1.0505
1119	-1.0049
1120	-0.92233
1121	-0.80538
1122	-0.65822
1123	-0.48638
1124	-0.2965
1125	-9.6032e-002
1126	0.10706
1127	0.30466
1128	0.48883
1129	0.65215
1130	0.78802
1131	0.89095
1132	0.9568
1133	0.98292
1134	0.96829
1135	0.91357
1136	0.82105
1137	0.69457
1138	0.53938
1139	0.36188
1140	0.16941
1141	-3.0092e-002
1142	-0.2284
1143	-0.41734
1144	-0.58912
1145	-0.73666
1146	-0.8539
1147	-0.93599
1148	-0.97956
1149	-0.9828
1150	-0.94558
1151	-0.86943
1152	-0.75747
1153	-0.6143
1154	-0.44583
1155	-0.25896
1156	-6.1384e-002
1157	0.13877
1158	0.33327
1159	0.51412
1160	0.67389
1161	0.80603
1162	0.9051
1163	0.96707
1164	0.98941
1165	0.97126
1166	0.91342
1167	0.81835
1168	0.69006
1169	0.53392
1170	0.35652
1171	0.16531
1172	-3.1615e-002
1173	-0.22592
1174	-0.40929
1175	-0.57383
1176	-0.71229
1177	-0.81844
1178	-0.88721
1179	-0.91496
1180	-0.89952
1181	-0.84031
1182	-0.73824
1183	-0.59568
1184	-0.41624
1185	-0.20456
1186	3.3987e-002
1187	0.29368
1188	0.5688
1189	0.8541
1190	1.1452
1191	-2.7465e-002
1192	-0.10081
1193	-0.20881
1194	-0.33988
1195	-0.48314
1196	-0.62809
1197	-0.76495
1198	-0.88493
1199	-0.98045
1200	-1.0454
1201	-1.0754
1202	-1.0677
1203	-1.0214
1204	-0.93742
1205	-0.81844
1206	-0.6687
1207	-0.4938
1208	-0.30051
1209	-9.6424e-002
1210	0.11035
1211	0.31154
1212	0.49905
1213	0.66533
1214	0.80366
1215	0.90844
1216	0.97545
1217	1.002
1218	0.98701
1219	0.93119
1220	0.83687
1221	0.70795
1222	0.54978
1223	0.3689
1224	0.17276
1225	-3.0543e-002
1226	-0.23262
1227	-0.42516
1228	-0.60021
1229	-0.75057
1230	-0.87004
1231	-0.95372
1232	-0.99813
1233	-1.0015
1234	-0.96358
1235	-0.88603
1236	-0.772
1237	-0.62618
1238	-0.45457
1239	-0.26423
1240	-6.2983e-002
1241	0.14088
1242	0.33897
1243	0.52315
1244	0.68583
1245	0.82033
1246	0.92113
1247	0.9841
1248	1.0067
1249	0.98795
1250	0.92875
1251	0.83158
1252	0.7005
1253	0.54101
1254	0.35978
1255	0.16442
1256	-3.685e-002
1257	-0.23554
1258	-0.42321
1259	-0.59179
1260	-0.73396
1261	-0.84334
1262	-0.91482
1263	-0.94469
1264	-0.93078
1265	-0.87249
1266	-0.77079
1267	-0.62812
1268	-0.44816
1269	-0.23569
1270	3.8365e-003
1271	0.26455
1272	0.54064
1273	0.82676
1274	1.1185
1275	-2.809e-002
1276	-0.10231
1277	-0.21186
1278	-0.34523
1279	-0.49139
1280	-0.63954
1281	-0.77962
1282	-0.90255
1283	-1.0005
1284	-1.0673
1285	-1.0983
1286	-1.0906
1287	-1.0434
1288	-0.95768
1289	-0.83604
1290	-0.68284
1291	-0.50386
1292	-0.30602
1293	-9.7098e-002
1294	0.1146
1295	0.32059
1296	0.51259
1297	0.68285
1298	0.82447
1299	0.93173
1300	1.0003
1301	1.0274
1302	1.012
1303	0.9547
1304	0.85797
1305	0.72581
1306	0.56367
1307	0.37825
1308	0.17721
1309	-3.1168e-002
1310	-0.23829
1311	-0.43563
1312	-0.61505
1313	-0.76917
1314	-0.89164
1315	-0.97741
1316	-1.023
1317	-1.0264
1318	-0.98763
1319	-0.9082
1320	-0.79139
1321	-0.642
1322	-0.46619
1323	-0.27119
1324	-6.503e-002
1325	0.14381
1326	0.34672
1327	0.53536
1328	0.70195
1329	0.83965
1330	0.94279
1331	1.0071
1332	1.03
1333	1.0106
1334	0.94962
1335	0.84969
1336	0.71497
1337	0.55106
1338	0.3648
1339	0.16398
1340	-4.2996e-002
1341	-0.24744
1342	-0.4407
1343	-0.61456
1344	-0.7615
1345	-0.87503
1346	-0.94992
1347	-0.9824
1348	-0.97027
1349	-0.91296
1350	-0.81148
1351	-0.66835
1352	-0.48742
1353	-0.27357
1354	-3.246e-002
1355	0.22988
1356	0.50748
1357	0.79484
1358	1.0875
1359	-2.7518e-002
1360	-0.10178
1361	-0.21304
1362	-0.3497
1363	-0.5001
1364	-0.65293
1365	-0.79767
1366	-0.92485
1367	-1.0264
1368	-1.0957
1369	-1.1282
1370	-1.1207
1371	-1.0725
1372	-0.98444
1373	-0.85933
1374	-0.70163
1375	-0.5173
1376	-0.31348
1377	-9.8194e-002
1378	0.11998
1379	0.3323
1380	0.53021
1381	0.7057
1382	0.85167
1383	0.96221
1384	1.0328
1385	1.0607
1386	1.0447
1387	0.98551
1388	0.88564
1389	0.74921
1390	0.58186
1391	0.3905
1392	0.18302
1393	-3.2015e-002
1394	-0.24576
1395	-0.4494
1396	-0.63456
1397	-0.7936
1398	-0.92
1399	-1.0085
1400	-1.0556
1401	-1.0592
1402	-1.0192
1403	-0.93728
1404	-0.8168
1405	-0.66272
1406	-0.48138
1407	-0.28024
1408	-6.7602e-002
1409	0.14779
1410	0.35706
1411	0.55158
1412	0.72335
1413	0.86528
1414	0.97152
1415	1.0377
1416	1.0611
1417	1.0408
1418	0.97754
1419	0.87406
1420	0.73462
1421	0.56501
1422	0.37226
1423	0.16439
1424	-4.9941e-002
1425	-0.26177
1426	-0.46222
1427	-0.64279
1428	-0.79578
1429	-0.9145
1430	-0.9936
1431	-1.0292
1432	-1.0191
1433	-0.96269
1434	-0.8611
1435	-0.71699
1436	-0.53434
1437	-0.31827
1438	-7.4664e-002
1439	0.19021
1440	0.47011
1441	0.75935
1442	1.0533
1443	-2.1177e-002
1444	-9.5274e-002
1445	-0.20969
1446	-0.3517
1447	-0.5086
1448	-0.66832
1449	-0.81976
1450	-0.95298
1451	-1.0595
1452	-1.1325
1453	-1.167
1454	-1.16
1455	-1.1105
1456	-1.0195
1457	-0.88994
1458	-0.72639
1459	-0.53509
1460	-0.32346
1461	-9.9859e-002
1462	0.12679
1463	0.34739
1464	0.55302
1465	0.73536
1466	0.88701
1467	1.0018
1468	1.0751
1469	1.104
1470	1.0872
1471	1.0255
1472	0.92156
1473	0.77957
1474	0.60545
1475	0.40637
1476	0.19053
1477	-3.3175e-002
1478	-0.25553
1479	-0.46738
1480	-0.66
1481	-0.82547
1482	-0.95697
1483	-1.0491
1484	-1.098
1485	-1.1018
1486	-1.0602
1487	-0.97495
1488	-0.84962
1489	-0.68935
1490	-0.50074
1491	-0.29157
1492	-7.0467e-002
1493	0.15346
1494	0.37097
1495	0.5731
1496	0.75153
1497	0.8989
1498	1.0091
1499	1.0777
1500	1.1017
1501	1.0803
1502	1.0142
1503	0.90621
1504	0.76078
1505	0.58391
1506	0.38289
1507	0.16605
1508	-5.7625e-002
1509	-0.27884
1510	-0.48836
1511	-0.67739
1512	-0.83792
1513	-0.96305
1514	-1.0472
1515	-1.0865
1516	-1.0785
1517	-1.0228
1518	-0.92059
1519	-0.77466
1520	-0.58927
1521	-0.36981
1522	-0.12248
1523	0.14611
1524	0.42938
1525	0.72132
1526	1.017
1527	0.
1528	0.
1529	0.
1530	0.
1531	0.
1532	0.
1533	0.
1534	0.
1535	0.
1536	0.
1537	0.
1538	0.
1539	0.
1540	0.
1541	0.
1542	0.
1543	1.3488
1544	1.3823
1545	1.4128
1546	1.4392
1547	1.4606
1548	1.4764
1549	1.486
1550	1.4892
1551	1.4858
1552	1.4761
1553	1.4603
1554	1.4388
1555	1.4123
1556	1.3818
1557	1.3483
1558	1.3132
