Node Number	Directional Deformation (m)
1	0.
2	0.
3	0.
4	0.
5	2.0727e-005
6	2.3368e-004
7	6.7852e-004
8	1.3695e-003
9	2.3105e-003
10	3.5009e-003
11	4.9379e-003
12	6.6171e-003
13	8.5336e-003
14	1.0682e-002
15	1.3057e-002
16	1.5652e-002
17	1.8463e-002
18	2.1482e-002
19	2.4706e-002
20	2.8127e-002
21	3.1741e-002
22	3.5541e-002
23	3.9523e-002
24	4.3681e-002
25	4.8009e-002
26	5.2502e-002
27	5.7155e-002
28	6.1963e-002
29	6.6919e-002
30	7.202e-002
31	7.726e-002
32	8.2633e-002
33	8.8136e-002
34	9.3762e-002
35	9.9507e-002
36	0.10537
37	0.11134
38	0.11741
39	0.12358
40	0.12985
41	0.13622
42	0.14267
43	0.1492
44	0.15582
45	0.16251
46	0.16928
47	0.17611
48	0.18302
49	0.18999
50	0.19701
51	0.2041
52	0.21124
53	0.21844
54	0.22569
55	0.23298
56	0.24032
57	0.2477
58	0.25512
59	0.26258
60	0.27008
61	0.27761
62	0.28517
63	0.29276
64	0.30038
65	0.30802
66	0.31569
67	0.32338
68	0.33109
69	0.33882
70	0.34656
71	0.35432
72	0.36209
73	0.36988
74	0.37768
75	0.38548
76	0.3933
77	0.40112
78	0.40895
79	0.41678
80	0.42462
81	0.43246
82	0.4403
83	0.44815
84	0.45599
85	0.46384
86	0.47169
87	0.47954
88	0.48739
89	0.
90	0.49524
91	0.
92	0.
93	0.
94	0.
95	0.
96	0.
97	0.
98	2.0728e-005
99	2.3368e-004
100	6.7852e-004
101	1.3695e-003
102	2.3105e-003
103	3.5009e-003
104	4.9379e-003
105	6.6171e-003
106	8.5336e-003
107	1.0682e-002
108	1.3057e-002
109	1.5652e-002
110	1.8463e-002
111	2.1482e-002
112	2.4706e-002
113	2.8127e-002
114	3.1741e-002
115	3.5541e-002
116	3.9523e-002
117	4.3681e-002
118	4.8009e-002
119	5.2502e-002
120	5.7155e-002
121	6.1963e-002
122	6.6919e-002
123	7.202e-002
124	7.726e-002
125	8.2633e-002
126	8.8136e-002
127	9.3762e-002
128	9.9507e-002
129	0.10537
130	0.11134
131	0.11741
132	0.12358
133	0.12985
134	0.13622
135	0.14267
136	0.1492
137	0.15582
138	0.16251
139	0.16928
140	0.17611
141	0.18302
142	0.18999
143	0.19701
144	0.2041
145	0.21124
146	0.21844
147	0.22569
148	0.23298
149	0.24032
150	0.2477
151	0.25512
152	0.26258
153	0.27008
154	0.27761
155	0.28517
156	0.29276
157	0.30038
158	0.30802
159	0.31569
160	0.32338
161	0.33109
162	0.33882
163	0.34656
164	0.35432
165	0.36209
166	0.36988
167	0.37768
168	0.38548
169	0.3933
170	0.40112
171	0.40895
172	0.41678
173	0.42462
174	0.43246
175	0.4403
176	0.44815
177	0.45599
178	0.46384
179	0.47169
180	0.47954
181	0.48739
182	0.49524
183	9.863e-005
184	4.2079e-004
185	9.916e-004
186	1.8183e-003
187	2.9015e-003
188	4.2384e-003
189	5.8242e-003
190	7.6538e-003
191	9.7213e-003
192	1.2021e-002
193	1.4546e-002
194	1.7292e-002
195	2.0253e-002
196	2.3421e-002
197	2.6793e-002
198	3.0362e-002
199	3.4123e-002
200	3.807e-002
201	4.2198e-002
202	4.6501e-002
203	5.0974e-002
204	5.5611e-002
205	6.0408e-002
206	6.5358e-002
207	7.0456e-002
208	7.5698e-002
209	8.1077e-002
210	8.6589e-002
211	9.2227e-002
212	9.7987e-002
213	0.10386
214	0.10985
215	0.11594
216	0.12213
217	0.12841
218	0.13478
219	0.14122
220	0.14773
221	0.15431
222	0.16096
223	0.16767
224	0.17446
225	0.18131
226	0.18822
227	0.19519
228	0.20222
229	0.20931
230	0.21646
231	0.22365
232	0.2309
233	0.23819
234	0.24552
235	0.2529
236	0.26032
237	0.26778
238	0.27527
239	0.2828
240	0.29035
241	0.29794
242	0.30556
243	0.3132
244	0.32086
245	0.32855
246	0.33626
247	0.34398
248	0.35172
249	0.35948
250	0.36725
251	0.37503
252	0.38283
253	0.39063
254	0.39845
255	0.40627
256	0.41409
257	0.42192
258	0.42976
259	0.4376
260	0.44544
261	0.45329
262	0.46113
263	0.46898
264	0.47683
265	0.48467
266	0.49252
267	1.2269e-004
268	4.8531e-004
269	1.0952e-003
270	1.9546e-003
271	3.0637e-003
272	4.42e-003
273	6.0197e-003
274	7.8582e-003
275	9.9302e-003
276	1.2231e-002
277	1.4754e-002
278	1.7495e-002
279	2.0448e-002
280	2.3608e-002
281	2.6969e-002
282	3.0526e-002
283	3.4274e-002
284	3.8207e-002
285	4.2319e-002
286	4.6607e-002
287	5.1063e-002
288	5.5684e-002
289	6.0463e-002
290	6.5396e-002
291	7.0476e-002
292	7.57e-002
293	8.1061e-002
294	8.6554e-002
295	9.2174e-002
296	9.7916e-002
297	0.10377
298	0.10974
299	0.11581
300	0.12198
301	0.12825
302	0.1346
303	0.14102
304	0.14753
305	0.1541
306	0.16074
307	0.16745
308	0.17423
309	0.18108
310	0.18798
311	0.19495
312	0.20198
313	0.20907
314	0.21621
315	0.2234
316	0.23064
317	0.23792
318	0.24526
319	0.25263
320	0.26005
321	0.2675
322	0.27499
323	0.28251
324	0.29007
325	0.29765
326	0.30526
327	0.3129
328	0.32056
329	0.32825
330	0.33595
331	0.34367
332	0.35141
333	0.35917
334	0.36693
335	0.37472
336	0.38251
337	0.39031
338	0.39812
339	0.40594
340	0.41376
341	0.42159
342	0.42943
343	0.43727
344	0.44511
345	0.45295
346	0.4608
347	0.46864
348	0.47649
349	0.48434
350	0.49219
351	1.3298e-004
352	5.2111e-004
353	1.1602e-003
354	2.0464e-003
355	3.178e-003
356	4.5517e-003
357	6.1641e-003
358	8.0108e-003
359	1.0087e-002
360	1.2389e-002
361	1.491e-002
362	1.7647e-002
363	2.0593e-002
364	2.3745e-002
365	2.7096e-002
366	3.0642e-002
367	3.4377e-002
368	3.8297e-002
369	4.2396e-002
370	4.6669e-002
371	5.111e-002
372	5.5715e-002
373	6.0479e-002
374	6.5395e-002
375	7.0459e-002
376	7.5666e-002
377	8.101e-002
378	8.6487e-002
379	9.2089e-002
380	9.7814e-002
381	0.10365
382	0.1096
383	0.11566
384	0.12181
385	0.12806
386	0.1344
387	0.14081
388	0.1473
389	0.15387
390	0.16051
391	0.16722
392	0.17399
393	0.18083
394	0.18773
395	0.1947
396	0.20172
397	0.20881
398	0.21594
399	0.22313
400	0.23037
401	0.23765
402	0.24498
403	0.25235
404	0.25976
405	0.26721
406	0.2747
407	0.28222
408	0.28977
409	0.29735
410	0.30496
411	0.3126
412	0.32026
413	0.32794
414	0.33564
415	0.34336
416	0.35109
417	0.35885
418	0.36661
419	0.37439
420	0.38218
421	0.38998
422	0.39779
423	0.40561
424	0.41343
425	0.42126
426	0.4291
427	0.43693
428	0.44477
429	0.45262
430	0.46046
431	0.46831
432	0.47615
433	0.484
434	0.49185
435	1.3794e-004
436	5.4087e-004
437	1.1996e-003
438	2.1056e-003
439	3.2545e-003
440	4.6422e-003
441	6.2648e-003
442	8.118e-003
443	1.0198e-002
444	1.2499e-002
445	1.5019e-002
446	1.7751e-002
447	2.0691e-002
448	2.3834e-002
449	2.7176e-002
450	3.0711e-002
451	3.4435e-002
452	3.8343e-002
453	4.2429e-002
454	4.6688e-002
455	5.1115e-002
456	5.5706e-002
457	6.0455e-002
458	6.5356e-002
459	7.0405e-002
460	7.5597e-002
461	8.0925e-002
462	8.6386e-002
463	9.1973e-002
464	9.7681e-002
465	0.10351
466	0.10944
467	0.11548
468	0.12162
469	0.12785
470	0.13418
471	0.14058
472	0.14707
473	0.15362
474	0.16026
475	0.16696
476	0.17373
477	0.18057
478	0.18747
479	0.19443
480	0.20145
481	0.20853
482	0.21566
483	0.22285
484	0.23008
485	0.23736
486	0.24469
487	0.25206
488	0.25947
489	0.26692
490	0.2744
491	0.28192
492	0.28947
493	0.29705
494	0.30465
495	0.31229
496	0.31994
497	0.32762
498	0.33532
499	0.34304
500	0.35077
501	0.35853
502	0.36629
503	0.37407
504	0.38186
505	0.38966
506	0.39746
507	0.40528
508	0.4131
509	0.42093
510	0.42876
511	0.4366
512	0.44444
513	0.45228
514	0.46012
515	0.46797
516	0.47582
517	0.48366
518	0.49151
519	1.4033e-004
520	5.5137e-004
521	1.2219e-003
522	2.1408e-003
523	3.3015e-003
524	4.6987e-003
525	6.3279e-003
526	8.185e-003
527	1.0266e-002
528	1.2566e-002
529	1.5082e-002
530	1.7809e-002
531	2.0742e-002
532	2.3878e-002
533	2.7211e-002
534	3.0736e-002
535	3.4449e-002
536	3.8345e-002
537	4.2418e-002
538	4.6665e-002
539	5.108e-002
540	5.5657e-002
541	6.0392e-002
542	6.5279e-002
543	7.0314e-002
544	7.5492e-002
545	8.0806e-002
546	8.6252e-002
547	9.1825e-002
548	9.7519e-002
549	0.10333
550	0.10925
551	0.11528
552	0.1214
553	0.12762
554	0.13394
555	0.14033
556	0.14681
557	0.15336
558	0.15999
559	0.16669
560	0.17345
561	0.18029
562	0.18719
563	0.19415
564	0.20117
565	0.20824
566	0.21537
567	0.22255
568	0.22979
569	0.23707
570	0.24439
571	0.25176
572	0.25916
573	0.26661
574	0.27409
575	0.28161
576	0.28915
577	0.29673
578	0.30434
579	0.31197
580	0.31962
581	0.3273
582	0.335
583	0.34272
584	0.35045
585	0.3582
586	0.36596
587	0.37374
588	0.38153
589	0.38932
590	0.39713
591	0.40495
592	0.41277
593	0.42059
594	0.42843
595	0.43626
596	0.4441
597	0.45194
598	0.45979
599	0.46763
600	0.47548
601	0.48332
602	0.49117
603	1.4128e-004
604	5.5605e-004
605	1.2325e-003
606	2.1581e-003
607	3.3248e-003
608	4.7266e-003
609	6.3585e-003
610	8.2162e-003
611	1.0296e-002
612	1.2593e-002
613	1.5104e-002
614	1.7825e-002
615	2.0751e-002
616	2.3878e-002
617	2.7201e-002
618	3.0716e-002
619	3.4419e-002
620	3.8304e-002
621	4.2366e-002
622	4.6601e-002
623	5.1003e-002
624	5.5568e-002
625	6.029e-002
626	6.5165e-002
627	7.0187e-002
628	7.5352e-002
629	8.0653e-002
630	8.6086e-002
631	9.1646e-002
632	9.7327e-002
633	0.10312
634	0.10903
635	0.11505
636	0.12116
637	0.12737
638	0.13367
639	0.14006
640	0.14653
641	0.15308
642	0.1597
643	0.1664
644	0.17316
645	0.17999
646	0.18689
647	0.19385
648	0.20086
649	0.20794
650	0.21507
651	0.22225
652	0.22948
653	0.23675
654	0.24408
655	0.25144
656	0.25885
657	0.26629
658	0.27377
659	0.28129
660	0.28883
661	0.29641
662	0.30401
663	0.31164
664	0.3193
665	0.32697
666	0.33467
667	0.34239
668	0.35012
669	0.35787
670	0.36563
671	0.37341
672	0.38119
673	0.38899
674	0.3968
675	0.40461
676	0.41243
677	0.42026
678	0.42809
679	0.43592
680	0.44376
681	0.4516
682	0.45945
683	0.46729
684	0.47514
685	0.48298
686	0.49083
687	1.4127e-004
688	5.5664e-004
689	1.2343e-003
690	2.1611e-003
691	3.3285e-003
692	4.7298e-003
693	6.36e-003
694	8.2146e-003
695	1.029e-002
696	1.2581e-002
697	1.5086e-002
698	1.7799e-002
699	2.0717e-002
700	2.3835e-002
701	2.7149e-002
702	3.0654e-002
703	3.4346e-002
704	3.822e-002
705	4.2271e-002
706	4.6495e-002
707	5.0886e-002
708	5.5439e-002
709	6.015e-002
710	6.5013e-002
711	7.0024e-002
712	7.5176e-002
713	8.0466e-002
714	8.5888e-002
715	9.1436e-002
716	9.7106e-002
717	0.10289
718	0.10879
719	0.11479
720	0.1209
721	0.1271
722	0.13339
723	0.13977
724	0.14624
725	0.15278
726	0.1594
727	0.16609
728	0.17285
729	0.17968
730	0.18657
731	0.19353
732	0.20055
733	0.20762
734	0.21475
735	0.22193
736	0.22916
737	0.23643
738	0.24375
739	0.25112
740	0.25852
741	0.26597
742	0.27345
743	0.28096
744	0.28851
745	0.29608
746	0.30368
747	0.31131
748	0.31897
749	0.32664
750	0.33434
751	0.34205
752	0.34979
753	0.35753
754	0.3653
755	0.37307
756	0.38086
757	0.38865
758	0.39646
759	0.40427
760	0.41209
761	0.41992
762	0.42775
763	0.43559
764	0.44342
765	0.45126
766	0.45911
767	0.46695
768	0.4748
769	0.48264
770	0.49049
771	1.4052e-004
772	5.5396e-004
773	1.2287e-003
774	2.1518e-003
775	3.3146e-003
776	4.7105e-003
777	6.3344e-003
778	8.182e-003
779	1.0249e-002
780	1.2533e-002
781	1.5029e-002
782	1.7733e-002
783	2.0641e-002
784	2.3749e-002
785	2.7054e-002
786	3.0549e-002
787	3.4231e-002
788	3.8095e-002
789	4.2135e-002
790	4.6349e-002
791	5.0729e-002
792	5.5272e-002
793	5.9972e-002
794	6.4825e-002
795	6.9825e-002
796	7.4967e-002
797	8.0246e-002
798	8.5657e-002
799	9.1195e-002
800	9.6854e-002
801	0.10263
802	0.10852
803	0.11451
804	0.12061
805	0.1268
806	0.13309
807	0.13946
808	0.14592
809	0.15246
810	0.15908
811	0.16576
812	0.17252
813	0.17935
814	0.18624
815	0.1932
816	0.20021
817	0.20729
818	0.21441
819	0.22159
820	0.22882
821	0.2361
822	0.24342
823	0.25078
824	0.25819
825	0.26563
826	0.27311
827	0.28062
828	0.28817
829	0.29574
830	0.30335
831	0.31097
832	0.31863
833	0.3263
834	0.334
835	0.34171
836	0.34945
837	0.35719
838	0.36496
839	0.37273
840	0.38052
841	0.38831
842	0.39612
843	0.40393
844	0.41175
845	0.41958
846	0.42741
847	0.43524
848	0.44308
849	0.45092
850	0.45877
851	0.46661
852	0.47446
853	0.4823
854	0.49015
855	1.3905e-004
856	5.4816e-004
857	1.2162e-003
858	2.1307e-003
859	3.2837e-003
860	4.6691e-003
861	6.2822e-003
862	8.1189e-003
863	1.0175e-002
864	1.2448e-002
865	1.4933e-002
866	1.7627e-002
867	2.0524e-002
868	2.3622e-002
869	2.6916e-002
870	3.0401e-002
871	3.4073e-002
872	3.7927e-002
873	4.1958e-002
874	4.6161e-002
875	5.0532e-002
876	5.5065e-002
877	5.9756e-002
878	6.4599e-002
879	6.9589e-002
880	7.4722e-002
881	7.9992e-002
882	8.5393e-002
883	9.0922e-002
884	9.6573e-002
885	0.10234
886	0.10822
887	0.11421
888	0.1203
889	0.12648
890	0.13276
891	0.13913
892	0.14559
893	0.15212
894	0.15874
895	0.16542
896	0.17218
897	0.17901
898	0.1859
899	0.19285
900	0.19987
901	0.20694
902	0.21407
903	0.22124
904	0.22847
905	0.23575
906	0.24307
907	0.25044
908	0.25784
909	0.26528
910	0.27276
911	0.28028
912	0.28782
913	0.2954
914	0.303
915	0.31063
916	0.31828
917	0.32596
918	0.33365
919	0.34137
920	0.3491
921	0.35685
922	0.36461
923	0.37239
924	0.38017
925	0.38797
926	0.39578
927	0.40359
928	0.41141
929	0.41924
930	0.42707
931	0.4349
932	0.44274
933	0.45058
934	0.45842
935	0.46627
936	0.47411
937	0.48196
938	0.48981
939	1.3679e-004
940	5.3892e-004
941	1.196e-003
942	2.0969e-003
943	3.235e-003
944	4.605e-003
945	6.2028e-003
946	8.0247e-003
947	1.0067e-002
948	1.2326e-002
949	1.4799e-002
950	1.748e-002
951	2.0366e-002
952	2.3453e-002
953	2.6736e-002
954	3.0211e-002
955	3.3873e-002
956	3.7717e-002
957	4.1739e-002
958	4.5933e-002
959	5.0295e-002
960	5.4819e-002
961	5.9501e-002
962	6.4336e-002
963	6.9318e-002
964	7.4442e-002
965	7.9704e-002
966	8.5098e-002
967	9.0619e-002
968	9.6263e-002
969	0.10202
970	0.1079
971	0.11388
972	0.11996
973	0.12614
974	0.13242
975	0.13878
976	0.14523
977	0.15177
978	0.15838
979	0.16506
980	0.17182
981	0.17864
982	0.18554
983	0.19249
984	0.1995
985	0.20658
986	0.2137
987	0.22088
988	0.22811
989	0.23539
990	0.24271
991	0.25008
992	0.25748
993	0.26493
994	0.27241
995	0.27992
996	0.28747
997	0.29504
998	0.30265
999	0.31028
1000	0.31793
1001	0.32561
1002	0.3333
1003	0.34102
1004	0.34875
1005	0.3565
1006	0.36426
1007	0.37204
1008	0.37983
1009	0.38762
1010	0.39543
1011	0.40324
1012	0.41106
1013	0.41889
1014	0.42672
1015	0.43456
1016	0.4424
1017	0.45024
1018	0.45808
1019	0.46592
1020	0.47377
1021	0.48162
1022	0.48946
1023	1.3345e-004
1024	5.2529e-004
1025	1.1666e-003
1026	2.0483e-003
1027	3.1659e-003
1028	4.5155e-003
1029	6.0937e-003
1030	7.8972e-003
1031	9.9226e-003
1032	1.2166e-002
1033	1.4624e-002
1034	1.7292e-002
1035	2.0166e-002
1036	2.3241e-002
1037	2.6513e-002
1038	2.9978e-002
1039	3.363e-002
1040	3.7465e-002
1041	4.1478e-002
1042	4.5664e-002
1043	5.0018e-002
1044	5.4534e-002
1045	5.9208e-002
1046	6.4035e-002
1047	6.901e-002
1048	7.4127e-002
1049	7.9382e-002
1050	8.477e-002
1051	9.0285e-002
1052	9.5922e-002
1053	0.10168
1054	0.10754
1055	0.11352
1056	0.1196
1057	0.12578
1058	0.13205
1059	0.13841
1060	0.14486
1061	0.15139
1062	0.158
1063	0.16468
1064	0.17144
1065	0.17827
1066	0.18516
1067	0.19211
1068	0.19913
1069	0.2062
1070	0.21333
1071	0.22051
1072	0.22774
1073	0.23502
1074	0.24234
1075	0.24971
1076	0.25712
1077	0.26456
1078	0.27204
1079	0.27956
1080	0.2871
1081	0.29468
1082	0.30229
1083	0.30992
1084	0.31757
1085	0.32525
1086	0.33295
1087	0.34066
1088	0.3484
1089	0.35615
1090	0.36391
1091	0.37169
1092	0.37948
1093	0.38727
1094	0.39508
1095	0.40289
1096	0.41072
1097	0.41854
1098	0.42637
1099	0.43421
1100	0.44205
1101	0.44989
1102	0.45773
1103	0.46558
1104	0.47343
1105	0.48127
1106	0.48912
1107	1.2848e-004
1108	5.0536e-004
1109	1.1246e-003
1110	1.981e-003
1111	3.0725e-003
1112	4.3968e-003
1113	5.9515e-003
1114	7.7334e-003
1115	9.7392e-003
1116	1.1965e-002
1117	1.4407e-002
1118	1.706e-002
1119	1.9921e-002
1120	2.2985e-002
1121	2.6246e-002
1122	2.9701e-002
1123	3.3344e-002
1124	3.717e-002
1125	4.1175e-002
1126	4.5353e-002
1127	4.9699e-002
1128	5.4209e-002
1129	5.8877e-002
1130	6.3697e-002
1131	6.8666e-002
1132	7.3778e-002
1133	7.9027e-002
1134	8.4409e-002
1135	8.9919e-002
1136	9.5551e-002
1137	0.1013
1138	0.10717
1139	0.11314
1140	0.11921
1141	0.12539
1142	0.13166
1143	0.13802
1144	0.14446
1145	0.15099
1146	0.1576
1147	0.16429
1148	0.17104
1149	0.17787
1150	0.18476
1151	0.19172
1152	0.19874
1153	0.20581
1154	0.21294
1155	0.22012
1156	0.22735
1157	0.23464
1158	0.24196
1159	0.24933
1160	0.25674
1161	0.26418
1162	0.27167
1163	0.27918
1164	0.28673
1165	0.29431
1166	0.30192
1167	0.30955
1168	0.31721
1169	0.32489
1170	0.33259
1171	0.3403
1172	0.34804
1173	0.35579
1174	0.36356
1175	0.37133
1176	0.37912
1177	0.38692
1178	0.39473
1179	0.40254
1180	0.41037
1181	0.41819
1182	0.42603
1183	0.43386
1184	0.4417
1185	0.44954
1186	0.45739
1187	0.46523
1188	0.47308
1189	0.48093
1190	0.48877
1191	1.2068e-004
1192	4.7559e-004
1193	1.065e-003
1194	1.889e-003
1195	2.9488e-003
1196	4.2435e-003
1197	5.7711e-003
1198	7.5289e-003
1199	9.5132e-003
1200	1.172e-002
1201	1.4145e-002
1202	1.6784e-002
1203	1.9631e-002
1204	2.2683e-002
1205	2.5934e-002
1206	2.9379e-002
1207	3.3013e-002
1208	3.6831e-002
1209	4.0829e-002
1210	4.5e-002
1211	4.934e-002
1212	5.3844e-002
1213	5.8506e-002
1214	6.3322e-002
1215	6.8285e-002
1216	7.3392e-002
1217	7.8637e-002
1218	8.4015e-002
1219	8.9521e-002
1220	9.515e-002
1221	0.1009
1222	0.10676
1223	0.11273
1224	0.1188
1225	0.12497
1226	0.13124
1227	0.1376
1228	0.14405
1229	0.15058
1230	0.15719
1231	0.16387
1232	0.17063
1233	0.17746
1234	0.18435
1235	0.19131
1236	0.19833
1237	0.20541
1238	0.21254
1239	0.21972
1240	0.22696
1241	0.23424
1242	0.24157
1243	0.24894
1244	0.25635
1245	0.2638
1246	0.27128
1247	0.2788
1248	0.28635
1249	0.29394
1250	0.30154
1251	0.30918
1252	0.31684
1253	0.32452
1254	0.33222
1255	0.33994
1256	0.34768
1257	0.35543
1258	0.3632
1259	0.37097
1260	0.37876
1261	0.38657
1262	0.39437
1263	0.40219
1264	0.41001
1265	0.41784
1266	0.42568
1267	0.43351
1268	0.44135
1269	0.4492
1270	0.45704
1271	0.46489
1272	0.47273
1273	0.48058
1274	0.48843
1275	1.0724e-004
1276	4.2933e-004
1277	9.7928e-004
1278	1.7639e-003
1279	2.7869e-003
1280	4.0485e-003
1281	5.5467e-003
1282	7.2786e-003
1283	9.2403e-003
1284	1.1427e-002
1285	1.3835e-002
1286	1.6459e-002
1287	1.9293e-002
1288	2.2333e-002
1289	2.5574e-002
1290	2.901e-002
1291	3.2636e-002
1292	3.6448e-002
1293	4.0439e-002
1294	4.4604e-002
1295	4.8939e-002
1296	5.3438e-002
1297	5.8096e-002
1298	6.2907e-002
1299	6.7868e-002
1300	7.2971e-002
1301	7.8213e-002
1302	8.3588e-002
1303	8.9092e-002
1304	9.4718e-002
1305	0.10046
1306	0.10632
1307	0.11229
1308	0.11836
1309	0.12453
1310	0.1308
1311	0.13716
1312	0.14361
1313	0.15014
1314	0.15675
1315	0.16344
1316	0.1702
1317	0.17703
1318	0.18392
1319	0.19088
1320	0.19791
1321	0.20499
1322	0.21212
1323	0.21931
1324	0.22655
1325	0.23383
1326	0.24116
1327	0.24854
1328	0.25595
1329	0.2634
1330	0.27089
1331	0.27841
1332	0.28597
1333	0.29355
1334	0.30116
1335	0.3088
1336	0.31646
1337	0.32414
1338	0.33185
1339	0.33957
1340	0.34731
1341	0.35506
1342	0.36283
1343	0.37061
1344	0.3784
1345	0.38621
1346	0.39402
1347	0.40184
1348	0.40966
1349	0.41749
1350	0.42532
1351	0.43316
1352	0.441
1353	0.44885
1354	0.45669
1355	0.46454
1356	0.47239
1357	0.48023
1358	0.48808
1359	8.0168e-005
1360	3.5474e-004
1361	8.5542e-004
1362	1.5948e-003
1363	2.5775e-003
1364	3.8038e-003
1365	5.2714e-003
1366	6.9767e-003
1367	8.9155e-003
1368	1.1083e-002
1369	1.3474e-002
1370	1.6083e-002
1371	1.8905e-002
1372	2.1934e-002
1373	2.5165e-002
1374	2.8593e-002
1375	3.2213e-002
1376	3.6018e-002
1377	4.0004e-002
1378	4.4165e-002
1379	4.8496e-002
1380	5.2991e-002
1381	5.7646e-002
1382	6.2455e-002
1383	6.7412e-002
1384	7.2514e-002
1385	7.7754e-002
1386	8.3128e-002
1387	8.863e-002
1388	9.4256e-002
1389	0.1
1390	0.10586
1391	0.11183
1392	0.1179
1393	0.12407
1394	0.13034
1395	0.1367
1396	0.14315
1397	0.14968
1398	0.15629
1399	0.16298
1400	0.16975
1401	0.17658
1402	0.18348
1403	0.19044
1404	0.19747
1405	0.20455
1406	0.21169
1407	0.21888
1408	0.22612
1409	0.23341
1410	0.24075
1411	0.24812
1412	0.25554
1413	0.263
1414	0.27049
1415	0.27801
1416	0.28557
1417	0.29316
1418	0.30077
1419	0.30841
1420	0.31608
1421	0.32376
1422	0.33147
1423	0.33919
1424	0.34694
1425	0.35469
1426	0.36246
1427	0.37025
1428	0.37804
1429	0.38585
1430	0.39366
1431	0.40148
1432	0.4093
1433	0.41714
1434	0.42497
1435	0.43281
1436	0.44065
1437	0.4485
1438	0.45634
1439	0.46419
1440	0.47204
1441	0.47989
1442	0.48773
1443	3.9266e-005
1444	3.068e-004
1445	8.3237e-004
1446	1.6238e-003
1447	2.6801e-003
1448	3.9973e-003
1449	5.5697e-003
1450	7.391e-003
1451	9.4547e-003
1452	1.1754e-002
1453	1.4283e-002
1454	1.7035e-002
1455	2.0004e-002
1456	2.3183e-002
1457	2.6566e-002
1458	3.0149e-002
1459	3.3924e-002
1460	3.7887e-002
1461	4.2031e-002
1462	4.6351e-002
1463	5.0841e-002
1464	5.5497e-002
1465	6.0312e-002
1466	6.5281e-002
1467	7.0398e-002
1468	7.5659e-002
1469	8.1058e-002
1470	8.659e-002
